	Si+	C_7H_7+	C_6H_10NO+	C_6H_10N_3+
	27.9727	91.0573	112.0785	124.0776
Sputter Time (s)	Intensity	Intensity	Intensity	Intensity	
1.6384	20.0122	26940.8	13.0243	15.0415	
4.9152	5.00107	30027.1	1.00187	19.0676	
8.1920	1.00009	30984.1	6.01284	21.0931	
11.4688	0	30781.8	8.02191	13.05	
14.7456	0	31393.2	5.00816	14.0494	
18.0224	0	31130.3	4.00979	14.0545	
21.2992	0	31813.6	4.00826	12.0484	
24.5760	0	31061.9	8.01529	21.0813	
27.8528	0	31154.7	6.0088	14.0602	
31.1296	0	30553.7	8.01688	17.0706	
34.4064	0	31345.6	5.01141	21.0758	
37.6832	1.00009	31459.1	3.00394	14.0583	
40.9600	0	31166.6	1.00236	16.0693	
44.2368	0	31471.6	3.00437	13.0486	
47.5136	0	31187.5	3.00615	11.035	
50.7904	0	30744.5	5.01037	16.06	
54.0672	0	31477.8	5.01104	12.0527	
57.3440	0	31404.7	7.01735	21.0841	
60.6208	1.00003	31069	3.00413	19.0784	
63.8976	0	31178.4	5.0089	15.0624	
67.1744	0	30376.6	3.0048	24.1158	
70.4512	0	31193.1	10.0209	10.0385	
73.7280	0	31353.3	3.0056	14.0437	
77.0048	0	31032.4	2.00385	17.0558	
80.2816	0	30881.9	1.00205	19.0854	
83.5584	0	30961.2	7.01269	17.0735	
86.8352	0	31522.8	5.0108	13.0556	
90.1120	0	31285.1	2.00336	14.0662	
93.3888	1.00003	31136.3	4.00826	12.0434	
96.6656	0	31380.4	3.00645	19.078	
99.9424	0	31210.1	3.00419	18.0645	
103.2192	0	30971	5.00792	13.0489	
106.4960	0	31423.9	4.00746	23.0902	
109.7728	0	31299.9	6.0161	17.078	
113.0496	0	31482.3	1.00162	15.055	
116.3264	0	31206.5	11.0182	12.0476	
119.6032	0	30656.1	4.00967	11.0419	
122.8800	0	31069.8	7.01361	14.0453	
126.1568	0	31397.7	5.00841	8.02431	
129.4336	1.00009	30545.7	5.01092	17.0576	
132.7104	0	31472.5	4.00673	15.0406	
135.9872	0	31235.1	6.01493	10.0328	
139.2640	0	31231.5	3.00572	15.0642	
142.5408	0	31160.3	6.01364	15.0712	
145.8176	0	31387.3	3.00388	19.0711	
149.0944	0	31435	5.00871	17.0651	
152.3712	0	31394.3	7.01391	11.0373	
155.6480	0	31316.1	3.00566	20.0802	
158.9248	0	30744.6	8.01664	10.0337	
162.2016	0	30920	2.00428	18.0869	
165.4784	0	31461.7	5.01098	8.0315	
168.7552	0	31085.1	5.01153	16.0633	
172.0320	0	31335.3	5.01092	17.0644	
175.3088	0	31018.6	7.01391	17.0822	
178.5856	0	31349.3	3.00468	15.0555	
181.8624	0	31709.5	5.01012	11.0397	
185.1392	0	30994.9	2.00293	14.0507	
188.4160	1.00009	30930.6	4.01059	21.0791	
191.6928	0	30783.5	7.0122	18.0639	
194.9696	1.00003	31053.1	3.00321	20.0831	
198.2464	0	31415.9	1.00187	16.073	
201.5232	0	31113.8	3.0059	19.0718	
204.8000	0	31448.2	9.0155	15.0536	
208.0768	1.00003	31453.8	4.00979	16.0608	
211.3536	0	30988.9	5.01086	12.0466	
214.6304	0	31367.7	7.0103	16.0564	
217.9072	0	30906.1	3.00468	12.0453	
221.1840	0	31478.2	6.01419	12.0396	
224.4608	0	31423.6	4.00709	13.0513	
227.7376	1.00015	31294.6	8.0121	9.02838	
231.0144	0	30546.8	6.01027	17.0588	
234.2912	0	31395.3	3.00425	17.0581	
237.5680	0	31708.5	6.01352	19.0693	
240.8448	0	31504.5	5.00957	23.0936	
244.1216	0	30893	3.00743	8.03033	
247.3984	0	31605.6	3.00829	24.0978	
250.6752	0	31276.4	4.00697	18.0806	
253.9520	0	30299.4	3.00602	13.0437	
257.2288	0	31244.3	2.0033	12.0428	
260.5056	0	30448.1	2.00391	19.0718	
263.7824	0	30681.1	8.02038	14.059	
267.0592	0	30939.3	2.00379	18.0723	
270.3360	0	31185.9	7.01024	13.0381	
273.6128	0	30979.3	6.00752	29.136	
276.8896	0	31464.4	8.01854	14.0641	
280.1664	1.00003	30680.5	4.0074	14.054	
283.4432	1.00003	31416	4.00899	14.0523	
286.7200	0	31205.8	6.01242	12.0452	
289.9968	0	31003.6	6.00966	18.0774	
293.2736	0	30999.3	7.0114	10.0387	
296.5504	0	31163.5	3.00547	11.0334	
299.8272	0	30946.9	3.00443	21.0719	
303.1040	0	30899.7	4.00697	25.107	
306.3808	0	30341.9	3.00517	14.0543	
309.6576	0	30849	5.00939	22.0701	
312.9344	0	31018.2	4.00807	14.0651	
316.2112	0	30475.3	5.00688	16.0595	
319.4880	0	29902.9	3.00572	16.056	
322.7648	0	30662.2	9.02016	18.0581	
326.0416	0	30938.9	5.00914	22.0779	
329.3184	0	30672.6	4.00722	13.046	
332.5952	0	30909.1	5.01018	11.041	
335.8720	0	31206.6	5.00939	13.0499	
339.1488	0	31085.7	5.01092	13.0462	
342.4256	0	30768.5	8.01468	12.0408	
345.7024	0	30848.4	4.00581	13.0555	
348.9792	0	31196.5	6.01536	15.0585	
352.2560	0	31464.9	5.01043	23.0801	
355.5328	0	30635.3	5.01184	11.0332	
358.8096	0	30845	7.01575	16.0583	
362.0864	0	30987	5.00608	15.0531	
365.3632	0	30555.2	10.0183	28.1264	
368.6400	0	30927.4	48.1581	38.1898	
371.9168	0	30678	185.62	140.245	
375.1936	0	30290.3	728.176	513.372	
378.4704	1.00021	26670.2	1954.62	1321.72	
381.7472	4.00073	20136.7	4685.69	3048.57	
385.0240	5.00198	12799.3	8360.41	4908.57	
388.3008	10.0061	6596.01	11841.6	6604.89	
391.5776	5.00198	3681.25	14197	7682.18	
394.8544	12.0117	2334.55	15035.2	8013.61	
398.1312	8.00586	1703.88	15970.3	8290.79	
401.4080	10.0086	1528.07	16242.8	8327.48	
404.6848	14.0154	1344.15	16243.3	8314.28	
407.9616	15.0115	1236.94	16213.5	8439.41	
411.2384	7.00577	1190.87	16507.3	8275.21	
414.5152	15.0151	1227.8	16685.9	8445.73	
417.7920	15.0124	1174.74	16724.3	8373.54	
421.0688	16.0137	1144.26	16482.3	8327.08	
424.3456	11.0097	1178.23	16676.3	8509.13	
427.6224	12.0132	1179.07	16404.6	8381.75	
430.8992	14.0112	1132.4	16539.9	8335.64	
434.1760	12.0125	1196.36	16673.5	8469.41	
437.4528	13.0091	1086.65	16504.4	8490.9	
440.7296	15.0179	1180.91	16504.5	8255.57	
444.0064	9.00742	1148.96	16491.7	8449.38	
447.2832	13.0075	1190.45	16794.1	8391.08	
450.5600	19.0223	1188.03	16742	8452.06	
453.8368	16.0127	1157.92	16562.4	8369.44	
457.1136	12.0132	1171.08	16475	8320.38	
460.3904	10.0092	1208.26	16398.6	8264.6	
463.6672	4.00195	1175.22	16616.6	8217.03	
466.9440	16.017	1170.23	16222.6	8223.22	
470.2208	9.00699	1171.62	16586.7	8193.18	
473.4976	12.0103	1135.16	16649.7	8347.45	
476.7744	13.0152	1123.42	16462.3	8442.42	
480.0512	11.0071	1119.02	16283.7	8076.13	
483.3280	18.0165	1129.11	16254.6	8496.17	
486.6048	14.0103	1177.06	16750.6	8245.08	
489.8816	9.00577	1111.63	16686	8479.09	
493.1584	10.0098	1143.79	16473.6	8507.4	
496.4352	11.0084	1162.22	16465.2	8474.03	
499.7120	18.0242	1170.53	16675.1	8224.51	
502.9888	18.022	1113.36	16563.1	8444.17	
506.2656	14.0077	1143	16701.2	8376.06	
509.5424	15.0132	1225.48	16655.7	8418.58	
512.8192	11.0097	1120.12	16534.3	8459.16	
516.0960	18.0209	1123.76	16353.2	8413.83	
519.3728	13.0139	1164.16	16572.3	8234.34	
522.6496	13.0123	1195.92	16574.2	8246.48	
525.9264	13.0099	1080.69	16764.8	8532.9	
529.2032	11.0071	1139.72	16103.5	8247.4	
532.4800	13.0092	1208.26	16639.5	8350.26	
535.7568	19.0207	1110.93	16541.4	8552.54	
539.0336	15.016	1110	16562.6	8350.78	
542.3104	19.0261	1151.24	16345	8448.35	
545.5872	17.014	1131.45	16332.7	8392.42	
548.8640	14.0173	1140	16306.3	8559.23	
552.1408	25.0283	1106.22	16785.8	8400.73	
555.4176	16.0127	1138.49	16434.5	8031.27	
558.6944	14.012	1162.25	16733.6	8216.45	
561.9712	16.0215	1128.39	16400.3	8450.66	
565.2480	13.0131	1144.79	16363.5	8488.86	
568.5248	11.0114	1157.44	16527.3	8201.58	
571.8016	14.012	1196.45	16619.5	8382.45	
575.0784	18.0176	1228.18	16178.4	8387.9	
578.3552	19.0145	1179.33	16243.4	8309.95	
581.6320	15.0151	1184.03	16416.1	8382.49	
584.9088	10.0098	1173.82	16516	8248.83	
588.1856	11.0091	1107.86	16415.5	8266.06	
591.4624	18.0187	1127.31	16409.6	8347.08	
594.7392	15.016	1156.08	16111.2	8100.03	
598.0160	16.0137	1143.26	16352.9	8310.99	
601.2928	10.0088	1192.16	16275.9	8514.63	
604.5696	20.022	1177.36	16151.9	8381.41	
607.8464	10.0057	1170.85	16336.7	8381.66	
611.1232	14.0231	1183.42	16445	8261.36	
614.4000	12.0088	1146.12	16546	8239.73	
617.6768	14.0111	1178.45	16349	8354.15	
620.9536	19.0203	1145.06	16647.6	8388.43	
624.2304	17.0213	1137.49	16378.4	8231.03	
627.5072	18.0209	1180.33	16554.7	8331.4	
630.7840	11.0145	1234.45	16391.4	8178.43	
634.0608	14.0137	1269.66	16429	8377.02	
637.3376	16.0166	1209.54	16377.2	8457.4	
640.6144	12.0153	1227.83	16610.6	8298.95	
643.8912	16.013	1170.49	16461.6	8145.05	
647.1680	13.0107	1143.42	16196.3	8354.86	
650.4448	16.0179	1192.06	16668.7	8314.35	
653.7216	11.0124	1125.63	16656.7	8529.84	
656.9984	10.0104	1095.38	16212.6	7957.98	
660.2752	19.018	1232.88	16286.6	8205.95	
663.5520	24.0382	1166.44	16466.8	8406.55	
666.8288	13.0171	1151.23	16248.8	8511	
670.1056	21.025	1136.19	16382.4	8463.47	
673.3824	15.0133	1182.24	16289.7	8325.86	
676.6592	26.0381	1143.95	16452.7	8339.87	
679.9360	14.0111	1225.84	16518.4	8104.16	
683.2128	11.0091	1199.95	16439.4	8185.48	
686.4896	18.0231	1141.43	16397.5	8444.32	
689.7664	10.0092	1181.94	16400.5	8411.1	
693.0432	16.0147	1174.58	16021.1	8416.91	
696.3200	14.012	1121.32	16326.4	8368.1	
699.5968	12.0117	1194.91	16036.3	8367.45	
702.8736	15.0155	1170.16	16443.3	8515.23	
706.1504	18.0187	1143.79	16163.7	8326.86	
709.4272	19.018	1143	16267.5	8320.54	
712.7040	13.0083	1178.33	16322.9	8638.2	
715.9808	9.01073	1228.86	16418.6	8409.7	
719.2576	12.0103	1212.16	16243.6	8480.51	
722.5344	12.0081	1216.92	16471.2	8362.81	
725.8112	9.00412	1166.86	16090.5	8548.84	
729.0880	17.0161	1172.91	16373.4	8329.8	
732.3648	17.0161	1176.28	16194.9	8418.18	
735.6416	16.0205	1141.1	16168.2	8273.61	
738.9184	11.0064	1196.06	16602.5	8555.12	
742.1952	10.0086	1131.48	16423.6	8340.12	
745.4720	12.0115	1198.93	16032.9	8389.08	
748.7488	11.0104	1198.49	16311.3	8348.79	
752.0256	10.0102	1264.95	16391.1	8212.3	
755.3024	18.0209	1197.76	16508.1	8132.63	
758.5792	11.0104	1211.61	16307.6	8135.81	
761.8560	16.0176	1246.29	16196.2	8235.06	
765.1328	16.0186	1229.51	16388.7	8302.05	
768.4096	13.0139	1230.11	16127.2	8562.88	
771.6864	14.0094	1202.84	16237	8468.63	
774.9632	13.0091	1212.07	16348.8	8575.13	
778.2400	9.0084	1209.9	16442.6	8489.5	
781.5168	11.0091	1269.42	16442.6	8205.16	
784.7936	14.012	1183.07	16144.2	8364.52	
788.0704	10.0092	1317.14	16412.7	8296.64	
791.3472	14.012	1176.32	16435.2	8341.97	
794.6240	20.022	1141.66	16462.2	8282.44	
797.9008	18.0253	1212.54	15956.8	8323.04	
801.1776	12.0117	1176.89	16249.6	8239.86	
804.4544	15.0146	1312.74	16655.2	8406.89	
807.7312	20.022	1188.05	16415.7	8486.7	
811.0080	23.0246	1189.49	16375.7	8221.89	
814.2848	12.0095	1202.84	16135.4	8389.65	
817.5616	13.0135	1201.83	16457.7	8325.22	
820.8384	10.0067	1217.06	16570.4	8360.13	
824.1152	10.0086	1233.32	16363.9	8564.34	
827.3920	13.0127	1218.44	16584	8554.1	
830.6688	7.00577	1181.71	16165	8421.34	
833.9456	9.00742	1207.7	16142.8	8353.46	
837.2224	11.0091	1233.42	16491.9	8472.33	
840.4992	7.00553	1210.8	16251.3	8368.86	
843.7760	10.0073	1242.64	16183.1	8391.57	
847.0528	10.0086	1330.97	16267.7	8532.46	
850.3296	9.00724	1206.75	16638	8550.86	
853.6064	12.0095	1231.16	16355.6	8517.5	
856.8832	14.0145	1273.22	16089.9	8314.11	
860.1600	11.005	1233.77	16119.8	8322.31	
863.4368	10.0079	1181.83	16194.6	8587.5	
866.7136	14.012	1227.97	16475.8	8478.34	
869.9904	3.00119	1247.18	16384.4	8224.79	
873.2672	8.00635	1233.28	16119.8	8300.12	
876.5440	8.00635	1257.55	16390.2	8497.79	
879.8208	7.00406	1202.78	16245.1	8138.86	
883.0976	11.0084	1227.21	16044	8636.91	
886.3744	5.00321	1240.37	15981.3	8150.99	
889.6512	15.0124	1245.69	16402.4	8398.67	
892.9280	12.0088	1269.99	16379.1	8418.95	
896.2048	6.00366	1247.67	16419.3	8299.85	
899.4816	6.00256	1248.41	16290.4	8337.57	
902.7584	8.00489	1245.43	16631.3	8511.82	
906.0352	13.0107	1353.76	16287.1	8383.56	
909.3120	9.00632	1257.92	16298.6	8326.91	
912.5888	4.0022	1260.5	16292.6	8301.49	
915.8656	12.0103	1272.8	16154.8	8416.97	
919.1424	10.0061	1290	15983	8272.79	
922.4192	8.00391	1371.35	16135.7	8176.24	
925.6960	7.00534	1440.72	15790.7	7888.9	
928.9728	8.00391	1898.61	15594.4	7768.46	
932.2496	10.0067	2708.1	14194.3	7146.13	
935.5264	4.0022	3937.74	12574.9	6357.86	
938.8032	2.00073	6137.86	10876.5	5383.2	
942.0800	3.00064	9465.46	8437.28	4255.62	
945.3568	2.00055	13638.8	6313.48	2997.1	
948.6336	1.00015	18335.8	4200.98	2190.14	
951.9104	1.00015	23114.6	2744.96	1242.44	
955.1872	0	25953.2	1643.78	743.843	
958.4640	0	27602.2	943.126	440.16	
961.7408	0	28851	538.555	248.846	
965.0176	0	29987.3	278.949	147.351	
968.2944	0	30715	174.249	84.499	
971.5712	0	30170.2	104.561	47.2514	
974.8480	0	30958.8	85.4038	36.1993	
978.1248	1.00003	31032.3	75.3218	38.162	
981.4016	0	30386.4	62.2421	32.1312	
984.6784	0	30472.8	54.1856	42.1923	
987.9552	1.00015	30553.7	45.1483	32.156	
991.2320	0	30949.6	51.2	35.1575	
994.5088	0	31260.8	55.2171	29.1362	
997.7856	0	30908.8	41.1392	27.0994	
1001.0624	1.00003	30405.6	38.1266	39.1626	
1004.3392	0	30907.3	51.1765	22.0941	
1007.6160	1.00003	30806.7	49.1448	32.1533	
1010.8928	0	30343	41.1208	28.1206	
1014.1696	0	30413.3	33.092	32.1361	
1017.4464	0	30753.8	49.1424	37.1743	
1020.7232	0	30611.8	33.0877	21.0827	
1024.0000	0	30054.1	45.1284	20.0796	
1027.2768	0	30541.1	40.136	28.116	
1030.5536	0	30927.3	40.0952	33.1406	
1033.8304	0	30377.5	38.1286	26.1118	
1037.1072	0	30687.5	34.0915	36.1234	
1040.3840	0	30403.7	48.165	28.1057	
1043.6608	0	30520	35.0933	35.1864	
1046.9376	0	30944.8	33.1116	39.1784	
1050.2144	0	30681.8	44.1238	27.1022	
1053.4912	1.00009	31147.4	31.102	23.0878	
1056.7680	0	30895.4	41.114	26.1165	
1060.0448	0	30692.1	29.0777	30.11	
1063.3216	0	30588.9	41.1152	23.0834	
1066.5984	0	31097.3	37.0863	30.1383	
1069.8752	0	30283.5	32.0778	16.064	
1073.1520	0	30660.8	46.151	26.1028	
1076.4288	0	30469.1	47.1562	23.1014	
1079.7056	0	30733.5	28.0805	35.1513	
1082.9824	0	30941.1	34.0936	28.1195	
1086.2592	0	30209.5	24.0576	27.0952	
1089.5360	1.00003	30486.3	33.0901	19.0798	
1092.8128	0	30270.8	28.0776	29.1307	
1096.0896	0	30228.6	29.0924	30.1331	
1099.3664	0	30128.3	22.0657	27.0944	
1102.6432	0	30948.3	30.0951	30.1309	
1105.9200	0	30717.4	26.0845	29.1215	
1109.1968	0	29889.2	42.1147	37.1594	
1112.4736	0	30673.9	34.0924	24.0821	
1115.7504	0	31366.1	37.1159	20.0724	
1119.0272	0	30971.5	29.0768	32.1487	
1122.3040	0	30317.1	33.1	33.1432	
1125.5808	0	30648.2	32.0932	27.115	
1128.8576	0	30186.8	25.0726	33.1562	
1132.1344	0	30697.4	32.0821	24.1043	
1135.4112	0	30510.3	30.0891	27.1163	
1138.6880	0	30250.8	23.0653	26.1097	
1141.9648	0	30328.8	26.0573	19.0713	
1145.2416	0	30050.4	25.0643	29.1398	
1148.5184	0	30684.5	29.0956	34.144	
1151.7952	0	30791.8	37.1077	25.0906	
1155.0720	0	30944.1	28.0755	30.1466	
1158.3488	0	31334.1	26.0712	33.1184	
1161.6256	0	30026.7	21.0518	16.0615	
1164.9024	0	30091.9	29.0845	23.1011	
1168.1792	0	30415.2	35.094	18.0652	
1171.4560	0	30400	27.0721	21.0789	
1174.7328	0	29667.3	32.0961	29.1271	
1178.0096	0	30352.4	27.0782	19.0887	
1181.2864	0	30791.9	30.0718	24.0971	
1184.5632	0	30357.7	23.0599	28.1246	
1187.8400	0	30465.9	25.0603	26.1145	
1191.1168	0	31040.3	32.0889	34.1708	
1194.3936	0	30615.6	31.0979	23.1061	
1197.6704	0	30306.5	21.0606	30.1462	
1200.9472	0	30870	26.0596	19.0736	
1204.2240	0	30870.4	18.0409	23.1063	
1207.5008	0	30649.1	29.0717	27.1051	
1210.7776	0	30164.5	19.0505	25.1106	
1214.0544	1.00003	30027.5	28.0833	31.0982	
1217.3312	0	30848.7	28.0788	19.0875	
1220.6080	0	30459.7	21.0365	16.0684	
1223.8848	0	30464.4	25.0601	21.0789	
1227.1616	0	30875.5	26.0768	24.0979	
1230.4384	0	30780.1	34.0979	20.0933	
1233.7152	0	30267.3	22.0538	23.0974	
1236.9920	0	29811.6	23.0696	30.1081	
1240.2688	0	30825	16.0442	25.0924	
1243.5456	0	30234.4	22.0514	25.1013	
1246.8224	0	30384.2	30.077	20.076	
1250.0992	0	30131.1	17.0336	18.0646	
1253.3760	0	30897.2	30.098	17.0617	
1256.6528	0	30651.7	31.0962	40.1809	
1259.9296	0	30365.2	27.0642	22.0983	
1263.2064	0	30109.6	20.0485	30.1223	
1266.4832	0	31051.8	21.0439	28.093	
1269.7600	0	30609.5	21.0483	24.0944	
1273.0368	0	30471.4	21.0535	16.0579	
1276.3136	0	29785	27.0761	21.0748	
1279.5904	0	30718.9	15.0348	26.1084	
1282.8672	0	30481.6	21.0532	25.1018	
1286.1440	0	30646.9	27.0685	27.1033	
1289.4208	0	29952.6	32.0956	21.072	
1292.6976	0	30462.9	43.1139	44.2178	
1295.9744	0	29887.7	77.3036	62.3211	
1299.2512	0	29853.7	101.53	84.5358	
1302.5280	0	29250.8	198.81	139.096	
1305.8048	0	29200.7	341.387	197.224	
1309.0816	0	28646	545.456	321.895	
1312.3584	1.00003	27692.9	866.394	544.733	
1315.6352	1.00021	25683.3	1418.3	924.844	
1318.9120	0	23449	2493.67	1570.53	
1322.1888	2.00049	18491.8	4076.02	2607.27	
1325.4656	2.00049	13954.3	6706.3	4149.52	
1328.7424	9.00577	8909.89	9679.25	5642.38	
1332.0192	2.00061	5341.88	12358.2	6740.85	
1335.2960	7.00235	3232.51	13740.4	7444.96	
1338.5728	6.00293	2205.46	14884	7722.68	
1341.8496	3.00064	1721.85	16123.8	8033.73	
1345.1264	8.0044	1499.8	15576	8114.56	
1348.4032	8.0044	1419.75	15662.5	8210.72	
1351.6800	4.00293	1385.94	15659.4	8074.4	
1354.9568	8.00537	1448.36	15886.3	8269.03	
1358.2336	9.00412	1337.31	15986.2	8123.05	
1361.5104	4.00195	1311.06	16024.9	8242.87	
1364.7872	15.0142	1222.93	15849.7	8150.66	
1368.0640	10.0086	1249.58	15978.2	8157.9	
1371.3408	8.00586	1288.28	15863.7	8063.95	
1374.6176	10.0055	1342.86	15824.6	8041.5	
1377.8944	11.0057	1364.34	15983.5	7985.88	
1381.1712	6.00403	1293.69	15888.1	8032.89	
1384.4480	4.00171	1257.53	15635.2	8033.29	
1387.7248	8.00537	1299.93	15903	7888.89	
1391.0016	11.0097	1262.77	15934.9	8312.19	
1394.2784	6.00476	1280.37	16043	8214.75	
1397.5552	5.0029	1305.26	15896	8411.27	
1400.8320	8.00482	1361.67	15995.8	8309.49	
1404.1088	8.0044	1323.55	16003.2	8186.54	
1407.3856	8.00831	1326.88	16036.4	8323.89	
1410.6624	4.00195	1293.8	15452.4	8083.99	
1413.9392	9.00907	1237.54	15653.4	8148.37	
1417.2160	7.00321	1266.78	15671	8330.88	
1420.4928	13.0075	1289.43	15834	8206.8	
1423.7696	5.00351	1256.08	15762.5	8168.47	
1427.0464	6.0022	1269.63	15840	8222.27	
1430.3232	6.00293	1313.83	16222.8	8084.71	
1433.6000	3.00156	1268.47	15776.2	8152.97	
1436.8768	8.00733	1228.12	15890.2	8060.36	
1440.1536	10.0092	1241.03	15848.1	8207.35	
1443.4304	14.0103	1264.77	16034.7	8469.56	
1446.7072	8.00391	1277.96	15751	8027.05	
1449.9840	10.0067	1288.44	15738.1	8063.29	
1453.2608	9.00577	1302.85	15833.3	8299.07	
1456.5376	6.0033	1293.77	16143.3	8416.63	
1459.8144	11.0077	1303.73	15885.8	8150.64	
1463.0912	10.0049	1328.25	15667.9	8070.34	
1466.3680	6.0044	1268.68	15800.2	8201.29	
1469.6448	8.00586	1242.63	16132.1	8408.72	
1472.9216	10.0067	1239.41	15921.8	8133.35	
1476.1984	7.00406	1247.54	15669.1	8144.2	
1479.4752	5.00229	1347.59	15741.9	8319.42	
1482.7520	3.00174	1274.38	16286.8	8084.97	
1486.0288	8.00586	1204.16	15636.7	8159.1	
1489.3056	8.0044	1279.76	16426.8	8465.73	
1492.5824	11.0104	1245.29	16510.9	8632.78	
1495.8592	8.0044	1273.85	16638.9	8462.58	
1499.1360	8.00342	1200.75	16678.9	8363.34	
1502.4128	7.00192	1278.15	16304.3	8428.28	
1505.6896	5.00351	1284.4	16550.5	8356.12	
1508.9664	10.0079	1311.85	16581	8652.55	
1512.2432	12.0088	1249.67	16154.5	8304.39	
1515.5200	17.0182	1208.63	16438.2	8652.71	
1518.7968	12.0081	1223.47	16341.9	8259.55	
1522.0736	6.00403	1216.18	16340.6	8342.64	
1525.3504	12.0117	1311.53	16262.5	8416.76	
1528.6272	6.00256	1245.58	16153.6	8460.63	
1531.9040	6.00366	1258.92	16425	8376.09	
1535.1808	7.00577	1295.93	16045.2	8429.72	
1538.4576	14.0171	1153.44	16458.5	8467.27	
1541.7344	10.0065	1313.51	16305.4	8578.43	
1545.0112	7.00449	1287.48	16553.5	8579.49	
1548.2880	10.0075	1324.32	16328.9	8568.5	
1551.5648	8.00489	1215.54	16656.1	8257.85	
1554.8416	10.0055	1136.44	16353.5	8340.41	
1558.1184	14.0197	1245.76	16573	8210.08	
1561.3952	6.00256	1282.52	16374.3	8365.82	
1564.6720	2.00061	1297.77	16128.6	8482.58	
1567.9488	7.00278	1288	16534	8656.46	
1571.2256	12.0088	1222.22	16772	8278.84	
1574.5024	7.00534	1237.9	16583.8	8305.8	
1577.7792	9.00577	1242.68	16341.7	8312.51	
1581.0560	5.00412	1228.72	16706.4	8506.47	
1584.3328	13.007	1250.93	16446	8446.41	
1587.6096	9.00632	1192.44	16353.4	8405.02	
1590.8864	6.0033	1251.91	16416.5	8432.09	
1594.1632	9.00467	1198.97	16782.6	8562	
1597.4400	7.00321	1254.32	16590	8516.51	
1600.7168	3.00156	1152.16	16142.8	8270.47	
1603.9936	11.0104	1178.4	16268.5	8425.77	
1607.2704	12.011	1277.88	16596.6	8423.1	
1610.5472	8.00489	1217.73	16538	8333.71	
1613.8240	10.0061	1213.48	16833.6	8308.89	
1617.1008	8.0044	1211.19	16563.1	8590.02	
1620.3776	11.0091	1185.16	16676.9	8626.53	
1623.6544	11.0084	1206.4	16517.2	8498.81	
1626.9312	9.00632	1193.66	16218.8	8231.74	
1630.2080	9.00376	1178.21	16549.5	8319.31	
1633.4848	11.0097	1262.18	16801.1	8488.1	
1636.7616	7.00748	1181.75	16814.8	8516.54	
1640.0384	12.0073	1235.88	16279.1	8438.16	
1643.3152	10.0092	1209.39	16548.7	8332.16	
1646.5920	13.0131	1266.93	16626	8450.58	
1649.8688	8.0044	1232.37	16585	8368.75	
1653.1456	5.0026	1093.19	16622.2	8344.14	
1656.4224	11.0077	1159.97	16772.5	8660.55	
1659.6992	9.00632	1186.46	16658	8392.35	
1662.9760	9.00797	1172.42	16329.1	8487.57	
1666.2528	12.0095	1232.85	16631	8283.13	
1669.5296	12.0116	1132.47	16563.1	8483.2	
1672.8064	13.0147	1176.03	16371.6	8406.92	
1676.0832	12.0103	1164.08	16329.4	8274.06	
1679.3600	16.0186	1123.78	16593.1	8481.2	
1682.6368	15.0151	1157.97	16796.7	8376.27	
1685.9136	9.00687	1154.15	16544.7	8312.4	
1689.1904	9.00687	1178.09	16270.5	8453.46	
1692.4672	11.0104	1198.43	16160.8	8416.28	
1695.7440	12.0139	1188.89	16548.1	8500.4	
1699.0208	14.0128	1224.65	16476.1	8388	
1702.2976	17.0192	1096.83	16625.7	8364.86	
1705.5744	16.0156	1108.19	16743.1	8368.69	
1708.8512	14.0154	1130.01	16589.4	8387.19	
1712.1280	11.0084	1153.16	16447.3	8398.61	
1715.4048	12.0103	1158.56	16529.8	8231.25	
1718.6816	8.00489	1131.27	16424.9	8471.15	
1721.9584	11.0071	1217.8	16290.3	8555.41	
1725.2352	16.0156	1164.46	16349	8471.5	
1728.5120	13.0131	1183.06	16424.3	8400.94	
1731.7888	14.0103	1210.89	16298	8453.16	
1735.0656	10.0092	1094.79	16758.6	8399.71	
1738.3424	22.0255	1189.22	16371.2	8496.21	
1741.6192	19.025	1169.37	16607.6	8428.95	
1744.8960	5.00229	1213.21	16779.9	8526.29	
1748.1728	12.0125	1227.21	16608.1	8528.52	
1751.4496	7.00235	1217.12	16561.2	8263.07	
1754.7264	10.0067	1227.58	16495.5	8416.26	
1758.0032	11.0064	1178.8	16323.7	8503.06	
1761.2800	9.00522	1208.39	16359.9	8480.45	
1764.5568	11.0094	1232.21	16198.4	8243.44	
1767.8336	11.0097	1157.58	16338.5	8361.77	
1771.1104	16.0127	1138.72	16186.9	8429.99	
1774.3872	7.00406	1187.43	16602.4	8395.61	
1777.6640	9.00742	1122.07	16445.8	8464.73	
1780.9408	9.00589	1235.77	16730	8427.32	
1784.2176	11.0097	1210.46	16712.9	8393.95	
1787.4944	16.0166	1141.8	16418	8298.21	
1790.7712	11.0091	1281.21	16278.8	8614.58	
1794.0480	5.00376	1313.28	16397.2	8431.49	
1797.3248	13.0107	1271.27	16504.9	8597.35	
1800.6016	16.0176	1181.56	16419.3	8366.53	
1803.8784	5.00137	1212.83	16290.4	8493.39	
1807.1552	6.0044	1228.8	16628.4	8552.48	
1810.4320	10.0061	1293.82	16465.5	8409.89	
1813.7088	9.00797	1222.23	16478.7	8645.21	
1816.9856	11.0084	1262.35	16215	8397.2	
1820.2624	9.00687	1239.65	16709	8353.98	
1823.5392	6.00305	1225.41	16836	8316.13	
1826.8160	10.0056	1213.92	16178.4	8271.34	
1830.0928	11.0104	1246.69	16068.2	8376.22	
1833.3696	3.00119	1242.72	16311.7	8580.79	
1836.6464	7.00406	1265.11	16432.4	8377.74	
1839.9232	7.00406	1275.66	16339.9	8305.43	
1843.2000	8.00684	1345.64	16442.4	7999.99	
1846.4768	5.00382	1328.74	16461.3	8276	
1849.7536	10.0067	1561.43	15835.9	8201.54	
1853.0304	5.00321	1718.44	15350.5	8015.31	
1856.3072	6.0022	2194.52	15195.2	7502.96	
1859.5840	7.00321	3017.15	14272	7117.3	
1862.8608	3.00082	4182.54	12941.6	6344.67	
1866.1376	8.00244	5874.25	11007.2	5731.93	
1869.4144	6.00256	8162.11	9473.14	4547.16	
1872.6912	7.00192	11645.5	7243.98	3608.76	
1875.9680	4.00073	15608.8	5080.77	2629.77	
1879.2448	0	19277.4	3676.15	1851.86	
1882.5216	0	23360.1	2577.19	1186.9	
1885.7984	1.00015	26528.4	1601.07	766.927	
1889.0752	0	28318	946.562	459.301	
1892.3520	0	29795	601.363	283.858	
1895.6288	0	30475.2	318.797	171.634	
1898.9056	1.00003	31422.5	198.55	105.807	
1902.1824	0	30963.3	119.734	68.4276	
1905.4592	0	31767.3	91.4157	51.2876	
1908.7360	0	31662.4	88.4489	55.2852	
1912.0128	0	32063.1	80.3849	52.2631	
1915.2896	1.00003	31523.6	80.3417	60.3466	
1918.5664	0	30911	82.3616	59.3144	
1921.8432	0	31502.1	66.2829	36.1863	
1925.1200	0	32017	69.3027	47.2774	
1928.3968	0	31466.9	69.3101	44.2075	
1931.6736	0	31516.6	69.288	44.2003	
1934.9504	0	31233.7	58.2518	33.1572	
1938.2272	1.00015	31299.3	67.2477	54.3013	
1941.5040	0	31293.2	55.1949	42.2592	
1944.7808	0	31272.9	47.1311	38.1974	
1948.0576	0	31583.8	59.2574	52.2926	
1951.3344	0	31280.9	53.1987	35.1828	
1954.6112	0	31308.4	45.1844	38.216	
1957.8880	0	30609.9	44.1515	26.1249	
1961.1648	0	31743.4	57.241	37.1645	
1964.4416	0	31326.7	47.1592	40.2021	
1967.7184	0	30826.3	60.2379	35.1823	
1970.9952	0	31519	57.2301	37.2017	
1974.2720	0	31984	44.1591	29.1337	
1977.5488	0	31805.9	50.1835	35.166	
1980.8256	0	30989.7	41.1242	29.1405	
1984.1024	0	31752.6	52.175	44.2512	
1987.3792	0	32012	56.2072	32.1625	
1990.6560	0	31178.9	42.1147	25.1262	
1993.9328	0	31282.4	44.1507	32.1222	
1997.2096	1.00021	31550	47.1557	32.1737	
2000.4864	0	31277	39.1099	34.13	
2003.7632	0	31946.3	45.1362	37.1612	
2007.0400	0	31523.8	46.1378	30.1491	
2010.3168	0	31256.7	44.1592	28.1546	
2013.5936	0	32244.8	49.1872	41.1812	
2016.8704	0	31274	36.114	37.1451	
2020.1472	0	31556.3	53.2017	39.1917	
2023.4240	0	32128.8	43.1329	24.1062	
2026.7008	0	31527.5	54.2073	35.1617	
2029.9776	0	31081.1	45.1364	24.1178	
2033.2544	0	31346.2	40.1255	33.1594	
2036.5312	0	32007.9	39.1022	39.2019	
2039.8080	0	31168.1	48.1621	34.144	
2043.0848	0	31102.7	43.159	35.1767	
2046.3616	0	31639.8	55.1977	37.1878	
2049.6384	0	31480.4	44.1385	33.1731	
2052.9152	0	31866.4	27.0735	30.1196	
2056.1920	0	31141.9	36.1203	29.1148	
2059.4688	0	31777.6	39.1347	29.1203	
2062.7456	0	31747.6	38.1214	24.1196	
2066.0224	0	31262.5	49.18	33.1595	
2069.2992	0	31084.1	36.1016	41.1741	
2072.5760	0	31803.1	46.15	38.1728	
2075.8528	0	31539.1	35.1045	20.0873	
2079.1296	0	31717.3	45.1462	31.1174	
2082.4064	0	31586.5	30.0771	33.14	
2085.6832	0	31650.2	39.12	25.1137	
2088.9600	0	31465.7	34.1102	38.1637	
2092.2368	0	31097.4	32.0855	37.1675	
2095.5136	0	31284.4	40.1475	33.1311	
2098.7904	0	31345.6	42.1336	38.1802	
2102.0672	0	30746.8	36.1007	27.0987	
2105.3440	0	31192.3	38.1197	38.1717	
2108.6208	0	30809.3	33.106	30.1324	
2111.8976	0	32072	33.1036	23.0897	
2115.1744	0	31073	38.1184	26.1085	
2118.4512	0	31857.5	42.113	31.1185	
2121.7280	0	32033.2	31.1073	24.0811	
2125.0048	0	31909.5	25.0782	22.1083	
2128.2816	0	31446.9	28.0665	29.1183	
2131.5584	0	31033.5	30.0788	33.1542	
2134.8352	0	31492.9	35.0925	25.1212	
2138.1120	0	31947.4	40.1378	23.0916	
2141.3888	0	30933.3	38.115	30.1344	
2144.6656	0	30943.1	21.0491	37.1685	
2147.9424	0	31810.1	31.0938	35.15	
2151.2192	1.00009	31433.4	39.1377	32.1136	
2154.4960	0	31195.1	33.1004	30.1367	
2157.7728	1.00003	30964	38.1232	34.1524	
2161.0496	0	31550.7	33.0971	32.1517	
2164.3264	0	30716.5	37.098	24.1141	
2167.6032	0	31210.7	24.0638	33.1546	
2170.8800	0	31062.3	29.0911	29.1256	
2174.1568	0	31478.2	27.0745	22.0791	
2177.4336	0	31685.8	38.1065	31.1496	
2180.7104	0	31116.4	31.0874	39.1684	
2183.9872	0	31613.9	26.062	35.1672	
2187.2640	0	33171.2	34.1067	25.1075	
2190.5408	0	31340.5	37.1085	28.1197	
2193.8176	0	31593.9	38.1173	25.0978	
2197.0944	0	31532.7	35.0966	31.1155	
2200.3712	0	31559	40.1389	38.1833	
2203.6480	0	31320	36.1186	28.1466	
2206.9248	0	31018.5	47.1769	37.1474	
2210.2016	0	31470	38.1194	37.2091	
2213.4784	0	31085.1	61.2398	46.2726	
2216.7552	1.00009	31550.3	63.296	54.3095	
2220.0320	0	30863.7	98.5079	56.2978	
2223.3088	0	31724.1	126.732	70.4441	
2226.5856	0	31006.6	211.997	126.009	
2229.8624	1.00003	31035.4	295.596	183.938	
2233.1392	0	30629.5	433.89	229.831	
2236.4160	1.00003	29136.2	655.854	423.419	
2239.6928	0	27950.8	1048.89	653.209	
2242.9696	1.00021	25760.5	1861.61	1049.06	
2246.2464	1.00003	22102.1	2993.09	1871.07	
2249.5232	3.00046	18160.8	4357.98	2719.8	
2252.8000	1.00027	14203.5	6346.14	3906.94	
2256.0768	6.00324	9955.11	8769.02	5247.65	
2259.3536	6.00256	6571.2	11070.6	6313.12	
2262.6304	6.00159	4407.48	13141.8	7220.81	
2265.9072	5.00137	3112.05	14415.9	7624.36	
2269.1840	3.00119	2415.01	15384.8	7965.32	
2272.4608	8.00648	1975.82	15758.7	8160.72	
2275.7376	13.0107	1669.97	16014.9	8346.2	
2279.0144	5.0029	1442.6	16012.6	8279.85	
2282.2912	8.00489	1407.81	16207.3	8354.39	
2285.5680	9.00632	1393.91	16163.2	8336.81	
2288.8448	6.00403	1294.83	16097.5	8404.41	
2292.1216	10.0067	1373.15	16181.6	8266.41	
2295.3984	5.00376	1382.26	15967.7	8151.44	
2298.6752	0	1311.76	15908.5	8195.89	
2301.9520	6.00256	1369.78	16207	8666.89	
2305.2288	12.0117	1316.67	16265.3	8300.48	
2308.5056	5.00198	1334.9	16177.3	8453.47	
2311.7824	5.00229	1321.6	16139.5	8445.94	
2315.0592	6.0022	1239.25	16412	8440.65	
2318.3360	6.0033	1269.23	16267.1	8194.56	
2321.6128	10.0067	1381.07	16278.8	8408.59	
2324.8896	10.0079	1285.51	16610.3	8445.59	
2328.1664	8.00586	1289.09	16193.8	8338.35	
2331.4432	9.00687	1272.04	16421.1	8345.04	
2334.7200	8.00635	1259.44	16115.7	8444.76	
2337.9968	16.0147	1283	16179.8	8266.05	
2341.2736	12.0103	1295.05	16303.1	8326.52	
2344.5504	8.00537	1259.92	16399.7	8342.39	
2347.8272	13.0075	1270.72	16166.6	8187.8	
2351.1040	12.0097	1249.99	16372.4	8461.67	
2354.3808	8.00305	1231.78	16233.7	8170.46	
2357.6576	12.0085	1267.09	16138.1	8343.39	
2360.9344	7.00363	1257.69	16175.9	8494.97	
2364.2112	7.00449	1296.1	16343.5	8269.74	
2367.4880	9.00467	1363.36	16365.8	8284.92	
2370.7648	6.00183	1252.43	16187.8	8391.71	
2374.0416	7.00577	1257.68	16422.4	8307.77	
2377.3184	5.00198	1269.09	16445.6	8425.95	
2380.5952	7.00534	1247.58	16152.2	8489.27	
2383.8720	6.00366	1236.88	16315.1	8445.16	
2387.1488	10.0073	1270.99	16265.9	8414.07	
2390.4256	4.0022	1312.7	16252.5	8475.75	
2393.7024	16.0147	1228.06	16080	8326.73	
2396.9792	6.00183	1306.46	16256.8	8502.54	
2400.2560	14.0086	1245.18	16206.8	8337.29	
2403.5328	14.0171	1290.62	16161.6	8467.72	
2406.8096	9.00577	1319.27	16314.5	8455.91	
2410.0864	14.0094	1315.51	16225.8	8266.32	
2413.3632	10.0061	1347.54	16259.6	8556.32	
2416.6400	1.00027	1301.21	16076.1	8364.44	
2419.9168	10.0067	1258.68	16267	8379.03	
2423.1936	6.00366	1260.03	16521.8	8306.82	
2426.4704	10.0062	1300.31	16457.4	8350.54	
2429.7472	7.00278	1268.42	16648.9	8274.9	
2433.0240	5.0026	1234.29	16314	8333.52	
2436.3008	18.022	1178.75	16391.6	8217.58	
2439.5776	5.0026	1195.97	16698.3	8569.95	
2442.8544	7.00492	1250.2	16303.1	8257.91	
2446.1312	10.0055	1212.79	16333.8	8313.14	
2449.4080	8.00733	1237.83	16580.4	8392.34	
2452.6848	12.0103	1282.59	16304.5	8675.67	
2455.9616	8.00635	1278.16	16248.9	8338.61	
2459.2384	5.00351	1319.57	16118	8364.17	
2462.5152	7.00449	1281.35	16442.3	8469.57	
2465.7920	8.00476	1363.59	16537.6	8611.99	
2469.0688	12.0081	1212.99	16027.5	8221.32	
2472.3456	10.0067	1265.98	16058.3	8272.12	
2475.6224	7.00321	1304.36	16776.2	8278.78	
2478.8992	12.0081	1237.99	16585.3	8250.36	
2482.1760	5.00229	1284.16	16261.3	8309.21	
2485.4528	4.00171	1266.83	16215.1	8527.31	
2488.7296	10.0067	1311.54	16808.8	8242.21	
2492.0064	10.0073	1269.68	16157.3	8437.78	
2495.2832	4.00122	1229.23	16276.4	8607.28	
2498.5600	6.00403	1271.26	16500.8	8332.81	
2501.8368	6.00293	1254.09	16404.5	8392.52	
2505.1136	13.0107	1238.1	16324.2	8438.17	
2508.3904	4.00244	1224.5	15993.5	8149.8	
2511.6672	5.00229	1309.09	16479	8413.1	
2514.9440	9.00522	1272.21	16309.4	8510.85	
2518.2208	7.00296	1314.14	16132.7	8168.85	
2521.4976	7.00406	1295.28	16015.1	8240	
2524.7744	9.00687	1266.63	16482.3	8375.77	
2528.0512	7.00363	1306.18	16529.7	8576.95	
2531.3280	6.0033	1295.64	16379.4	8469.05	
2534.6048	12.0081	1202.37	16555.9	8476.31	
2537.8816	6.00403	1272	16498.6	8469.31	
2541.1584	7.00534	1230.82	16445.2	8554.07	
2544.4352	5.00412	1263	16302.8	8466.61	
2547.7120	10.0098	1236.26	16146.5	8316.22	
2550.9888	8.0044	1301.1	16581.6	8309.46	
2554.2656	8.00635	1252.7	16472	8526.18	
2557.5424	7.00449	1270.19	16337.2	8363.8	
2560.8192	6.00513	1215.08	16404.5	8353.48	
2564.0960	4.00122	1274.06	16352.9	8382.66	
2567.3728	10.0061	1244.94	16446	8552.08	
2570.6496	4.00122	1285.81	16112.6	8346.7	
2573.9264	15.014	1208.19	16557.1	8476.6	
2577.2032	9.00742	1297.38	16561.3	8427.53	
2580.4800	11.0084	1264.27	16452.8	8312.14	
2583.7568	9.00522	1232.29	16132.4	8291.29	
2587.0336	6.00366	1241.79	16537.6	8352.12	
2590.3104	19.0203	1273.25	16575.1	8660.64	
2593.5872	8.00391	1314.33	16336.6	8410.16	
2596.8640	11.0071	1249.91	16407.5	8456.17	
2600.1408	8.00586	1258.07	16667.1	8380.75	
2603.4176	10.0079	1266.79	16572.2	8424.85	
2606.6944	4.00122	1225.38	16568.5	8395.63	
2609.9712	6.00513	1228.16	16518.8	8238.75	
2613.2480	9.00522	1245.07	16753.3	8532.37	
2616.5248	16.0137	1243.99	16452	8623.71	
2619.8016	11.0084	1180.11	16460.2	8579.14	
2623.0784	8.00489	1265.74	16392	8383.7	
2626.3552	5.00412	1229.66	16536.9	8552.85	
2629.6320	8.00489	1191.38	16536	8591.38	
2632.9088	10.0067	1210.18	16307	8484.89	
2636.1856	6.0044	1207.83	16213.9	8486.37	
2639.4624	8.00684	1286.39	16372.8	8375.92	
2642.7392	7.00492	1335.95	16623.3	8357.82	
2646.0160	5.00321	1293.37	16168.5	8365.81	
2649.2928	8.00684	1219.2	16313.6	8449.53	
2652.5696	9.00644	1268.47	16378.4	8488.47	
2655.8464	12.0095	1227.81	16416.7	8280.2	
2659.1232	5.00382	1260.42	16633.7	8340.14	
2662.4000	4.00171	1255.67	16224	8387.57	
2665.6768	7.00534	1264.92	16527.1	8393.02	
2668.9536	14.0137	1305.86	16426.6	8360.96	
2672.2304	6.00366	1280.87	16345	8343.32	
2675.5072	11.0057	1347.65	16636.2	8554.07	
2678.7840	9.00632	1292.83	16384.3	8464.27	
2682.0608	7.00321	1268.29	16712.4	8339.57	
2685.3376	11.0081	1213.72	16242.7	8408.87	
2688.6144	15.0115	1256.87	16432.1	8470.25	
2691.8912	10.0073	1232.79	16704.8	8302.07	
2695.1680	11.0091	1273.67	16455.8	8531.26	
2698.4448	5.0026	1302.44	16587.8	8422.86	
2701.7216	8.00537	1246.56	16843.7	8360.1	
2704.9984	8.0044	1248.22	16713.7	8404.42	
2708.2752	9.00742	1362.41	16296.9	8502.38	
2711.5520	13.0099	1289.67	16094.8	8473.17	
2714.8288	4.0022	1279.24	16279.8	8404.32	
2718.1056	2.00049	1310.47	16659.1	8594.8	
2721.3824	15.0115	1289.33	16509.6	8428.17	
2724.6592	10.0054	1284.25	16228.3	8408.54	
2727.9360	12.0139	1250.87	16569.4	8387.9	
2731.2128	9.00797	1253.96	16787.7	8373.29	
2734.4896	9.00632	1343.23	16216.7	8518.71	
2737.7664	6.00403	1258.86	16640.2	8552.27	
2741.0432	13.0107	1262.82	16550	8441.62	
2744.3200	12.0103	1258.5	16476.8	8596.55	
2747.5968	10.0087	1226.16	16651.2	8590.77	
2750.8736	15.0142	1144.03	16497.7	8641.32	
2754.1504	13.0115	1159.25	16616.8	8599.12	
2757.4272	8.00586	1152.17	16392.2	8259.39	
2760.7040	22.0269	1162.74	16350	8205.56	
2763.9808	29.047	1161.61	16321.5	8177.19	
2767.2576	71.1978	1127.83	15887.8	8310.4	
2770.5344	94.3284	1119.73	15901.7	8130.11	
2773.8112	182.041	1182.63	15669.7	8124.15	
2777.0880	267.315	1184.34	15358.6	7794.55	
2780.3648	469.988	1129.14	15087.1	7852.24	
2783.6416	738.991	1010.69	13982.2	7390.5	
2786.9184	1350.42	966.262	13443.4	6727.92	
2790.1952	2421.19	861.1	12035.8	6246.61	
2793.4720	3906.47	807.189	10226.4	5222.55	
2796.7488	5926.08	659.786	7966.71	4227.7	
2800.0256	7939.55	455.758	6068.18	3253.03	
2803.3024	10196.5	357.578	4075.42	2204.41	
2806.5792	11776.7	207.308	2649.87	1432.1	
2809.8560	12039.9	123.631	1657.18	866.091	
2813.1328	12051.9	96.9441	975.804	547.416	
2816.4096	11444.9	66.4585	562.964	310.402	
2819.6864	11049.7	29.1343	362.15	211.135	
2822.9632	10321.3	38.1865	223.067	114.834	
2826.2400	9694.89	17.0532	142.368	64.2615	
2829.5168	9370.24	14.0351	81.1138	46.1324	
2832.7936	8602.65	6.01579	63.8832	28.0788	
2836.0704	8240.77	9.02279	56.815	19.0576	
2839.3472	7855.63	12.0389	41.5643	22.07	
2842.6240	7350.46	6.01665	45.6733	23.068	
2845.9008	7409.9	6.01064	39.4832	21.0506	
2849.1776	6961.7	11.0219	54.7892	26.0652	
2852.4544	6755.12	6.01211	40.5619	12.0375	
2855.7312	6452	8.01811	35.4687	17.0421	
2859.0080	6187.01	3.00486	36.4562	21.0611	
2862.2848	6146.45	6.01027	32.4878	12.0279	
2865.5616	5979.72	11.0225	30.3726	20.049	
2868.8384	5765.84	9.01623	38.5076	14.0341	
2872.1152	5528.58	3.00413	30.3865	12.0316	
2875.3920	5420.17	12.0278	23.308	16.0509	
2878.6688	5227.93	8.01223	21.2896	13.0426	
2881.9456	4957.28	5.00718	31.4774	10.0325	
2885.2224	5055.21	8.01223	22.2719	16.0568	
2888.4992	4846.02	3.00486	27.3682	12.0316	
2891.7760	4722.72	9.01672	24.3101	20.0674	
2895.0528	4574.23	5.00779	34.4266	13.045	
2898.3296	4524.63	6.0077	28.3987	12.0404	
2901.6064	4423.43	9.01899	26.37	13.0378	
2904.8832	4352.19	4.00758	18.2528	17.0567	
2908.1600	4234.93	5.00565	23.2965	9.02562	
